# Ort/mm Intensit√§t/nA
-22 1.62
-20 1.88
-18 2.54
-16 3.89
-14 6.95
-12 10.86
-10 16.01
-8 19.80
-6 15.21
-5 10.35
-4 5.04
-3 2.15
-2 1.79
-1 4.45
0 15.59
1 34.60
2 55.87
3 101.91
4 143.7
5 141
6 151.03
7 150.59
8 84.58
9 71.37
10 40.7
11 26.81
12 24.04
13 15.91
14 8.05
15 5.71
16 3.31